# Velocity	Xi_G_fit
0.000000	1.564361
1.000000	1.556349
1.033304	1.556082
1.067717	1.555806
1.103276	1.555521
1.140019	1.555227
1.177986	1.554923
1.217217	1.554609
1.257755	1.554284
1.299643	1.553948
1.342926	1.553601
1.387651	1.553243
1.433865	1.552873
1.481618	1.552490
1.530961	1.552095
1.581948	1.551686
1.634633	1.551264
1.689072	1.550828
1.745325	1.550378
1.803451	1.549912
1.863513	1.549431
1.925575	1.548933
1.989704	1.548420
2.055968	1.547889
2.124440	1.547340
2.195192	1.546773
2.268300	1.546188
2.343843	1.545582
2.421901	1.544957
2.502560	1.544311
2.585905	1.543643
2.672025	1.542953
2.761014	1.542240
2.852966	1.541504
2.947980	1.540742
3.046159	1.539956
3.147608	1.539143
3.252435	1.538303
3.360753	1.537435
3.472679	1.536539
3.588333	1.535612
3.707838	1.534655
3.831323	1.533665
3.958920	1.532643
4.090767	1.531587
4.227005	1.530495
4.367780	1.529367
4.513244	1.528202
4.663552	1.526998
4.818866	1.525753
4.979352	1.524468
5.145184	1.523139
5.316538	1.521766
5.493598	1.520348
5.676556	1.518882
5.865607	1.517367
6.060954	1.515802
6.262806	1.514185
6.471381	1.512514
6.686903	1.510787
6.909602	1.509003
7.139718	1.507160
7.377497	1.505255
7.623196	1.503286
7.877077	1.501252
8.139414	1.499150
8.410487	1.496979
8.690588	1.494734
8.980017	1.492416
9.279086	1.490020
9.588114	1.487544
9.907435	1.484985
10.237390	1.482342
10.578334	1.479610
10.930632	1.476788
11.294664	1.473871
11.670818	1.470858
12.059501	1.467744
12.461128	1.464526
12.876130	1.461197
13.304954	1.457750
13.748059	1.454177
14.205922	1.450469
14.679033	1.446618
15.167900	1.442615
15.673048	1.438453
16.195020	1.434121
16.734375	1.429610
17.291693	1.424911
17.867572	1.420014
18.462630	1.414908
19.077505	1.409584
19.712858	1.404029
20.369371	1.398233
21.047748	1.392185
21.748717	1.385872
22.473032	1.379282
23.221469	1.372405
23.994831	1.365226
24.793950	1.357734
25.619682	1.349916
26.472914	1.341760
27.354562	1.333253
28.265573	1.324382
29.206923	1.315137
30.179624	1.305506
31.184719	1.295480
32.223288	1.285050
33.296446	1.274210
34.405343	1.262955
35.551171	1.251284
36.735159	1.239195
37.958579	1.226688
39.222743	1.213757
40.529009	1.200398
41.878778	1.186608
43.273499	1.172385
44.714670	1.157726
46.203838	1.142633
47.742600	1.127112
49.332609	1.111172
50.975571	1.094818
52.673251	1.078057
54.427469	1.060902
56.240109	1.043371
58.113117	1.025486
60.048504	1.007266
62.048346	0.988732
64.114790	0.969909
66.250055	0.950825
68.456432	0.931507
70.736290	0.911985
73.092076	0.892294
75.526318	0.872463
78.041630	0.852505
80.640711	0.832430
83.326351	0.812247
86.101434	0.791963
88.968937	0.771610
91.931939	0.751235
94.993620	0.730886
98.157266	0.710615
101.426274	0.690450
104.804152	0.670399
108.294526	0.650459
111.901143	0.630629
115.627874	0.610949
119.478719	0.591469
123.457812	0.572233
127.569424	0.553255
131.817968	0.534521
136.208004	0.516016
140.744245	0.497777
145.431560	0.479855
150.274981	0.462281
155.279706	0.445039
160.451107	0.428101
165.794735	0.411499
171.316326	0.395287
177.021807	0.379474
182.917302	0.364021
189.009139	0.348928
195.303858	0.334248
201.808214	0.319987
208.529190	0.306095
215.474000	0.292579
222.650099	0.279487
230.065188	0.266776
237.727228	0.254414
245.644443	0.242448
253.825331	0.230851
262.278674	0.219579
271.013545	0.208679
280.039320	0.198109
289.365687	0.187851
299.002658	0.177939
308.960577	0.168311
319.250131	0.159003
329.882367	0.149984
340.868696	0.141252
352.220912	0.132810
363.951199	0.124633
376.072149	0.116739
388.596773	0.109100
401.538514	0.101729
414.911263	0.094613
428.729376	0.087745
443.007685	0.081135
457.761514	0.074757
473.006703	0.068630
488.759613	0.062736
505.037155	0.057070
521.856801	0.051641
539.236604	0.046436
557.195220	0.041448
575.751927	0.036679
594.926641	0.032127
614.739946	0.027784
635.213110	0.023645
656.368106	0.019705
678.227644	0.015962
700.815188	0.012411
724.154982	0.009048
748.272079	0.005866
773.192366	0.002863
798.942594	0.000033
825.550401	-0.002631
853.044349	-0.005131
881.453949	-0.007474
910.809696	-0.009665
941.143101	-0.011708
972.486722	-0.013608
1004.874204	-0.015372
1038.340312	-0.017002
1072.920968	-0.018505
1108.653291	-0.019885
1145.575634	-0.021148
1183.727632	-0.022297
1223.150235	-0.023339
1263.885759	-0.024278
1305.977931	-0.025117
1349.471931	-0.025862
1394.414445	-0.026518
1440.853715	-0.027087
1488.839588	-0.027576
1538.423572	-0.027987
1589.658890	-0.028325
1642.600538	-0.028595
1697.305343	-0.028799
1753.832024	-0.028941
1812.241257	-0.029025
1872.595739	-0.029055
1934.960253	-0.029033
1999.401741	-0.028963
2065.989374	-0.028849
2134.794626	-0.028693
2205.891354	-0.028499
2279.355871	-0.028268
2355.267034	-0.028004
2433.706326	-0.027709
2514.757943	-0.027387
2598.508885	-0.027038
2685.049049	-0.026666
2774.471328	-0.026273
2866.871707	-0.025861
2962.349368	-0.025432
3061.006795	-0.024987
3162.949888	-0.024529
3268.288071	-0.024059
3377.134413	-0.023579
3489.605750	-0.023091
3605.822807	-0.022595
3725.910331	-0.022094
3849.997224	-0.021588
3978.216679	-0.021079
4110.706327	-0.020568
4247.608380	-0.020055
4389.069789	-0.019543
4535.242398	-0.019032
4686.283107	-0.018523
4842.354042	-0.018016
5003.622728	-0.017512
5170.262272	-0.017013
5342.451542	-0.016518
5520.375365	-0.016029
5704.224724	-0.015546
5894.196962	-0.015069
6090.495992	-0.014598
6293.332522	-0.014135
6502.924275	-0.013680
6719.496225	-0.013232
6943.280840	-0.012792
7174.518328	-0.012361
7413.456898	-0.011939
7660.353025	-0.011525
7915.471726	-0.011121
8179.086844	-0.010725
8451.481341	-0.010339
8732.947605	-0.009962
9023.787758	-0.009594
9324.313988	-0.009236
9634.848877	-0.008887
9955.725750	-0.008547
10287.289037	-0.008217
10629.894633	-0.007896
10983.910290	-0.007584
11349.716007	-0.007281
11727.704436	-0.006988
12118.281308	-0.006703
12521.865865	-0.006428
12938.891314	-0.006161
13369.805286	-0.005902
13815.070321	-0.005653
14275.164364	-0.005411
14750.581277	-0.005178
15241.831370	-0.004953
15749.441948	-0.004735
16273.957875	-0.004526
16815.942165	-0.004324
17375.976580	-0.004129
17954.662257	-0.003942
18552.620354	-0.003761
19170.492714	-0.003587
19808.942559	-0.003421
20468.655197	-0.003260
21150.338757	-0.003106
21854.724957	-0.002958
22582.569878	-0.002816
23334.654785	-0.002680
24111.786962	-0.002549
24914.800577	-0.002424
25744.557579	-0.002304
26601.948624	-0.002189
27487.894032	-0.002080
28403.344769	-0.001975
29349.283474	-0.001874
30326.725513	-0.001778
31336.720065	-0.001686
32380.351252	-0.001599
33458.739301	-0.001515
34573.041747	-0.001435
35724.454675	-0.001359
36914.214004	-0.001287
38143.596814	-0.001218
39413.922717	-0.001152
40726.555273	-0.001089
42082.903453	-0.001030
43484.423152	-0.000973
44932.618753	-0.000919
46429.044740	-0.000868
47975.307367	-0.000819
49573.066381	-0.000773
51224.036809	-0.000729
52929.990789	-0.000687
54692.759484	-0.000648
56514.235037	-0.000610
58396.372608	-0.000575
60341.192472	-0.000541
62350.782186	-0.000509
64427.298832	-0.000479
66572.971328	-0.000451
68790.102825	-0.000424
71081.073180	-0.000398
73448.341503	-0.000374
75894.448807	-0.000351
78422.020727	-0.000330
81033.770342	-0.000310
83732.501089	-0.000290
86521.109766	-0.000272
89402.589650	-0.000255
92380.033702	-0.000239
95456.637891	-0.000224
98635.704625	-0.000210
101920.646294	-0.000197
105314.988932	-0.000184
108822.376007	-0.000172
112446.572324	-0.000161
116191.468072	-0.000150
120061.083000	-0.000141
124059.570726	-0.000131
128191.223203	-0.000123
132460.475319	-0.000114
136871.909661	-0.000107
141430.261437	-0.000100
146140.423551	-0.000093
151007.451861	-0.000087
156036.570604	-0.000081
161233.178005	-0.000075
166602.852068	-0.000070
172151.356567	-0.000065
177884.647231	-0.000061
183808.878138	-0.000056
189930.408320	-0.000053
196255.808588	-0.000049
202791.868586	-0.000045
209545.604078	-0.000042
216524.264483	-0.000039
223735.340648	-0.000036
231186.572897	-0.000034
238885.959336	-0.000031
246841.764436	-0.000029
255062.527907	-0.000027
263557.073865	-0.000025
272334.520301	-0.000023
281404.288869	-0.000021
290776.115002	-0.000020
300460.058358	-0.000018
310466.513619	-0.000017
320806.221650	-0.000016
331490.281029	-0.000015
342530.159955	-0.000013
353937.708565	-0.000012
365725.171649	-0.000012
377905.201793	-0.000011
390490.872964	-0.000010
403495.694542	-0.000009
416933.625818	-0.000008
430819.090982	-0.000008
445166.994604	-0.000007
459992.737631	-0.000007
475312.233921	-0.000006
491141.927325	-0.000006
507498.809332	-0.000005
524400.437317	-0.000005
541864.953378	-0.000004
559911.103815	-0.000004
578558.259250	-0.000004
597826.435422	-0.000003
617736.314667	-0.000003
638309.268123	-0.000003
659567.378665	-0.000003
681533.464614	-0.000002
704231.104226	-0.000002
727684.661003	-0.000002
751919.309842	-0.000002
776961.064060	-0.000002
802836.803316	-0.000002
829574.302464	-0.000001
857202.261364	-0.000001
885750.335689	-0.000001
915249.168762	-0.000001
945730.424440	-0.000001
977226.821108	-0.000001
1009772.166798	-0.000001
1043401.395475	-0.000001
1078150.604538	-0.000001
1114057.093567	-0.000001
1151159.404356	-0.000001
1189497.362289	-0.000001
1229112.119085	-0.000001
1270046.196970	-0.000000
1312343.534323	-0.000000
1356049.532834	-0.000000
1401211.106243	-0.000000
1447876.730694	-0.000000
1496096.496769	-0.000000
1545922.163258	-0.000000
1597407.212712	-0.000000
1650606.908854	-0.000000
1705578.355898	-0.000000
1762380.559844	-0.000000
1821074.491814	-0.000000
1881723.153499	-0.000000
1944391.644785	-0.000000
2009147.233629	-0.000000
2076059.428268	-0.000000
2145200.051822	-0.000000
2216643.319396	-0.000000
2290465.917735	-0.000000
2366747.087544	-0.000000
2445568.708544	-0.000000
2527015.387358	-0.000000
2611174.548331	-0.000000
2698136.527369	-0.000000
2787994.668902	-0.000000
2880845.426086	-0.000000
2976788.464330	-0.000000
3075926.768278	-0.000000
3178366.752351	-0.000000
3284218.374973	-0.000000
3393595.256599	-0.000000
3506614.801675	-0.000000
3623398.324656	-0.000000
3744071.180231	-0.000000
3868762.897871	-0.000000
3997607.320868	-0.000000
4130742.750002	-0.000000
4268312.091992	-0.000000
4410463.012889	-0.000000
4557348.096583	-0.000000
4709125.008583	-0.000000
4865956.665257	-0.000000
5028011.408702	-0.000000
5195463.187443	-0.000000
5368491.743149	-0.000000
5547282.803566	-0.000000
5732028.281874	-0.000000
5922926.482688	-0.000000
6120182.314917	-0.000000
6324007.511709	-0.000000
6534620.857729	-0.000000
6752248.423993	-0.000000
6977123.810541	-0.000000
7209488.397175	-0.000000
7449591.602556	-0.000000
7697691.151930	-0.000000
7954053.353766	-0.000000
8218953.385613	-0.000000
8492675.589471	-0.000000
8775513.777003	-0.000000
9067771.544912	-0.000000
9369762.600817	-0.000000
9681811.099986	-0.000000
10004251.993283	-0.000000
10337431.386701	-0.000000
10681706.912871	-0.000000
11037448.114941	-0.000000
11405036.843243	-0.000000
11784867.665167	-0.000000
12177348.288688	-0.000000
12582900.000000	-0.000000
