# Velocity	Xi_G_fit
0.000000	1.542399
1.000000	1.534171
1.032926	1.533900
1.066937	1.533621
1.102067	1.533332
1.138354	1.533033
1.175836	1.532725
1.214552	1.532406
1.254542	1.532077
1.295850	1.531737
1.338517	1.531386
1.382590	1.531024
1.428113	1.530649
1.475136	1.530262
1.523707	1.529863
1.573877	1.529450
1.625699	1.529024
1.679227	1.528583
1.734518	1.528129
1.791629	1.527659
1.850621	1.527174
1.911555	1.526672
1.974495	1.526155
2.039508	1.525620
2.106662	1.525068
2.176026	1.524497
2.247675	1.523908
2.321682	1.523299
2.398127	1.522671
2.477088	1.522021
2.558649	1.521351
2.642896	1.520658
2.729917	1.519943
2.819803	1.519204
2.912649	1.518440
3.008552	1.517652
3.107612	1.516838
3.209934	1.515997
3.315626	1.515128
3.424797	1.514231
3.537563	1.513304
3.654042	1.512347
3.774356	1.511359
3.898631	1.510338
4.026999	1.509283
4.159593	1.508194
4.296553	1.507069
4.438023	1.505908
4.584151	1.504708
4.735090	1.503469
4.890999	1.502189
5.052041	1.500868
5.218386	1.499503
5.390208	1.498093
5.567688	1.496638
5.751011	1.495135
5.940371	1.493582
6.135966	1.491979
6.338000	1.490324
6.546687	1.488615
6.762245	1.486849
6.984901	1.485027
7.214888	1.483145
7.452448	1.481202
7.697829	1.479195
7.951290	1.477123
8.213097	1.474985
8.483524	1.472776
8.762855	1.470496
9.051383	1.468143
9.349412	1.465713
9.657254	1.463205
9.975231	1.460616
10.303679	1.457943
10.642941	1.455174
10.993374	1.452295
11.355345	1.449289
11.729234	1.446142
12.115435	1.442848
12.514351	1.439404
12.926403	1.435806
13.352021	1.432047
13.791654	1.428118
14.245762	1.424011
14.714822	1.419715
15.199327	1.415220
15.699785	1.410519
16.216721	1.405601
16.750678	1.400457
17.302215	1.395076
17.871913	1.389447
18.460370	1.383559
19.068201	1.377400
19.696047	1.370960
20.344565	1.364225
21.014436	1.357184
21.706364	1.349825
22.421074	1.342137
23.159317	1.334106
23.921868	1.325722
24.709527	1.316974
25.523120	1.307849
26.363502	1.298338
27.231555	1.288433
28.128190	1.278127
29.054347	1.267413
30.010999	1.256285
30.999151	1.244738
32.019838	1.232767
33.074133	1.220370
34.163142	1.207540
35.288008	1.194275
36.449912	1.180574
37.650073	1.166443
38.889751	1.151892
40.170246	1.136933
41.492904	1.121572
42.859112	1.105810
44.270304	1.089648
45.727962	1.073086
47.233615	1.056123
48.788843	1.038756
50.395280	1.020983
52.054610	1.002815
53.768576	0.984270
55.538976	0.965372
57.367670	0.946150
59.256575	0.926636
61.207675	0.906869
63.223018	0.886892
65.304718	0.866722
67.454961	0.846372
69.676004	0.825855
71.970177	0.805197
74.339889	0.784436
76.787627	0.763617
79.315960	0.742783
81.927542	0.721962
84.625113	0.701185
87.411505	0.680478
90.289643	0.659873
93.262548	0.639399
96.333339	0.619086
99.505240	0.598964
102.781579	0.579059
106.165797	0.559395
109.661445	0.539995
113.272191	0.520883
117.001826	0.502081
120.854263	0.483609
124.833548	0.465483
128.943855	0.447714
133.189500	0.430305
137.574938	0.413264
142.104773	0.396603
146.783758	0.380330
151.616805	0.364451
156.608986	0.348974
161.765541	0.333903
167.091883	0.319237
172.593601	0.304977
178.276471	0.291127
184.146456	0.277685
190.209719	0.264645
196.472622	0.252010
202.941739	0.239777
209.623861	0.227937
216.526000	0.216486
223.655402	0.205421
231.019548	0.194731
238.626168	0.184407
246.483246	0.174446
254.599029	0.164840
262.982034	0.155575
271.641061	0.146649
280.585197	0.138054
289.823831	0.129776
299.366659	0.121809
309.223697	0.114148
319.405291	0.106781
329.922127	0.099698
340.785244	0.092895
352.006043	0.086364
363.596301	0.080093
375.568184	0.074079
387.934257	0.068315
400.707499	0.062792
413.901316	0.057504
427.529557	0.052446
441.606526	0.047612
456.146997	0.042994
471.166233	0.038587
486.679996	0.034386
502.704570	0.030381
519.256774	0.026568
536.353981	0.022944
554.014136	0.019502
572.255775	0.016235
591.098043	0.013141
610.560718	0.010212
630.664227	0.007442
651.429669	0.004828
672.878842	0.002365
695.034256	0.000046
717.919166	-0.002132
741.557592	-0.004174
765.974344	-0.006086
791.195049	-0.007873
817.246178	-0.009537
844.155076	-0.011085
871.949983	-0.012521
900.660075	-0.013849
930.315484	-0.015072
960.947335	-0.016196
992.587781	-0.017226
1025.270029	-0.018164
1059.028383	-0.019014
1093.898275	-0.019782
1129.916304	-0.020469
1167.120273	-0.021080
1205.549231	-0.021620
1245.243514	-0.022091
1286.244782	-0.022495
1328.596070	-0.022839
1372.341830	-0.023123
1417.527976	-0.023351
1464.201935	-0.023527
1512.412695	-0.023654
1562.210858	-0.023733
1613.648689	-0.023768
1666.780179	-0.023763
1721.661092	-0.023718
1778.349031	-0.023637
1836.903494	-0.023522
1897.385940	-0.023376
1959.859848	-0.023201
2024.390792	-0.022998
2091.046502	-0.022771
2159.896937	-0.022520
2231.014363	-0.022248
2304.473424	-0.021956
2380.351219	-0.021648
2458.727390	-0.021323
2539.684199	-0.020983
2623.306617	-0.020631
2709.682412	-0.020268
2798.902242	-0.019894
2891.059752	-0.019512
2986.251668	-0.019122
3084.577903	-0.018726
3186.141657	-0.018325
3291.049530	-0.017919
3399.411631	-0.017510
3511.341697	-0.017099
3626.957206	-0.016687
3746.379506	-0.016274
3869.733942	-0.015861
3997.149984	-0.015450
4128.761364	-0.015039
4264.706222	-0.014631
4405.127241	-0.014226
4550.171806	-0.013824
4699.992152	-0.013426
4854.745529	-0.013033
5014.594363	-0.012643
5179.706428	-0.012259
5350.255024	-0.011881
5526.419155	-0.011508
5708.383719	-0.011141
5896.339705	-0.010781
6090.484387	-0.010427
6291.021535	-0.010079
6498.161632	-0.009739
6712.122086	-0.009406
6933.127467	-0.009079
7161.409739	-0.008760
7397.208503	-0.008448
7640.771249	-0.008144
7892.353617	-0.007847
8152.219662	-0.007558
8420.642136	-0.007275
8697.902770	-0.007001
8984.292573	-0.006734
9280.112134	-0.006474
9585.671940	-0.006221
9901.292701	-0.005976
10227.305688	-0.005738
10564.053079	-0.005508
10911.888316	-0.005284
11271.176483	-0.005067
11642.294682	-0.004858
12025.632432	-0.004655
12421.592078	-0.004458
12830.589211	-0.004269
13253.053110	-0.004085
13689.427184	-0.003908
14140.169443	-0.003738
14605.752981	-0.003573
15086.666463	-0.003414
15583.414650	-0.003261
16096.518920	-0.003114
16626.517817	-0.002972
17173.967620	-0.002835
17739.442922	-0.002704
18323.537237	-0.002578
18926.863620	-0.002457
19550.055311	-0.002340
20193.766402	-0.002229
20858.672521	-0.002121
21545.471542	-0.002019
22254.884317	-0.001920
22987.655434	-0.001826
23744.553997	-0.001735
24526.374433	-0.001649
25333.937327	-0.001566
26168.090284	-0.001487
27029.708815	-0.001411
27919.697262	-0.001339
28838.989740	-0.001270
29788.551122	-0.001204
30769.378053	-0.001141
31782.499991	-0.001081
32828.980291	-0.001023
33909.917321	-0.000969
35026.445614	-0.000917
36179.737058	-0.000867
37371.002129	-0.000820
38601.491157	-0.000775
39872.495642	-0.000733
41185.349610	-0.000692
42541.431008	-0.000653
43942.163156	-0.000617
45389.016239	-0.000582
46883.508848	-0.000549
48427.209577	-0.000518
50021.738667	-0.000488
51668.769710	-0.000460
53370.031399	-0.000433
55127.309351	-0.000408
56942.447973	-0.000384
58817.352403	-0.000361
60753.990510	-0.000340
62754.394953	-0.000319
64820.665325	-0.000300
66954.970346	-0.000282
69159.550145	-0.000265
71436.718613	-0.000249
73788.865824	-0.000234
76218.460553	-0.000219
78728.052860	-0.000206
81320.276770	-0.000193
83997.853036	-0.000181
86763.591995	-0.000169
89620.396520	-0.000159
92571.265063	-0.000148
95619.294805	-0.000139
98767.684905	-0.000130
102019.739859	-0.000122
105378.872967	-0.000114
108848.609918	-0.000106
112432.592487	-0.000099
116134.582361	-0.000093
119958.465084	-0.000087
123908.254137	-0.000081
127988.095151	-0.000075
132202.270255	-0.000070
136555.202576	-0.000066
141051.460876	-0.000061
145695.764350	-0.000057
150492.987578	-0.000053
155448.165643	-0.000049
160566.499414	-0.000046
165853.361006	-0.000043
171314.299417	-0.000040
176955.046353	-0.000037
182781.522246	-0.000034
188799.842464	-0.000032
195016.323730	-0.000030
201437.490758	-0.000028
208070.083091	-0.000026
214921.062185	-0.000024
221997.618709	-0.000022
229307.180094	-0.000020
236857.418330	-0.000019
244656.258015	-0.000017
252711.884677	-0.000016
261032.753362	-0.000015
269627.597511	-0.000014
278505.438122	-0.000013
287675.593225	-0.000012
297147.687655	-0.000011
306931.663159	-0.000010
317037.788827	-0.000009
327476.671876	-0.000009
338259.268776	-0.000008
349396.896753	-0.000007
360901.245671	-0.000007
372784.390294	-0.000006
385058.802966	-0.000006
397737.366698	-0.000005
410833.388691	-0.000005
424360.614303	-0.000005
438333.241476	-0.000004
452765.935639	-0.000004
467673.845097	-0.000004
483072.616934	-0.000003
498978.413435	-0.000003
515407.929048	-0.000003
532378.407910	-0.000003
549907.661941	-0.000002
568014.089543	-0.000002
586716.694910	-0.000002
606035.107972	-0.000002
625989.605002	-0.000002
646601.129894	-0.000002
667891.316150	-0.000001
689882.509579	-0.000001
712597.791759	-0.000001
736061.004256	-0.000001
760296.773653	-0.000001
785330.537393	-0.000001
811188.570484	-0.000001
837898.013068	-0.000001
865486.898915	-0.000001
893984.184842	-0.000001
923419.781108	-0.000001
953824.582805	-0.000001
985230.502287	-0.000000
1017670.502665	-0.000000
1051178.632402	-0.000000
1085790.061050	-0.000000
1121541.116168	-0.000000
1158469.321443	-0.000000
1196613.436082	-0.000000
1236013.495488	-0.000000
1276710.853282	-0.000000
1318748.224706	-0.000000
1362169.731458	-0.000000
1407020.948001	-0.000000
1453348.949397	-0.000000
1501202.360713	-0.000000
1550631.408064	-0.000000
1601687.971321	-0.000000
1654425.638572	-0.000000
1708899.762359	-0.000000
1765167.517781	-0.000000
1823287.962500	-0.000000
1883322.098730	-0.000000
1945332.937262	-0.000000
2009385.563600	-0.000000
2075547.206273	-0.000000
2143887.307395	-0.000000
2214477.595557	-0.000000
2287392.161102	-0.000000
2362707.533899	-0.000000
2440502.763659	-0.000000
2520859.502911	-0.000000
2603862.092698	-0.000000
2689597.651103	-0.000000
2778156.164684	-0.000000
2869630.582928	-0.000000
2964116.915799	-0.000000
3061714.334520	-0.000000
3162525.275653	-0.000000
3266655.548619	-0.000000
3374214.446750	-0.000000
3485314.862006	-0.000000
3600073.403462	-0.000000
3718610.519698	-0.000000
3841050.625220	-0.000000
3967522.231047	-0.000000
4098158.079587	-0.000000
4233095.283969	-0.000000
4372475.471947	-0.000000
4516444.934558	-0.000000
4665154.779659	-0.000000
4818761.090530	-0.000000
4977425.089701	-0.000000
5141313.308159	-0.000000
5310597.760144	-0.000000
5485456.123690	-0.000000
5666071.927111	-0.000000
5852634.741629	-0.000000
6045340.380349	-0.000000
6244391.103776	-0.000000
6449995.832107	-0.000000
6662370.364508	-0.000000
6881737.605616	-0.000000
7108327.799492	-0.000000
7342378.771286	-0.000000
7584136.176849	-0.000000
7833853.760573	-0.000000
8091793.621715	-0.000000
8358226.489492	-0.000000
8633432.007233	-0.000000
8917699.025892	-0.000000
9211325.907213	-0.000000
9514620.836893	-0.000000
9827902.148046	-0.000000
10151498.655315	-0.000000
10485750.000000	-0.000000
