# Velocity	Xi_G_fit
0.000000	1.301811
1.000000	1.299571
1.028171	1.299508
1.057136	1.299441
1.086916	1.299371
1.117535	1.299298
1.149018	1.299220
1.181386	1.299138
1.214667	1.299053
1.248886	1.298962
1.284068	1.298867
1.320241	1.298767
1.357434	1.298662
1.395674	1.298551
1.434991	1.298434
1.475416	1.298312
1.516980	1.298183
1.559715	1.298047
1.603654	1.297904
1.648830	1.297753
1.695279	1.297595
1.743037	1.297429
1.792140	1.297254
1.842626	1.297070
1.894535	1.296876
1.947906	1.296672
2.002780	1.296458
2.059200	1.296233
2.117210	1.295996
2.176854	1.295747
2.238178	1.295485
2.301229	1.295210
2.366057	1.294920
2.432711	1.294616
2.501243	1.294297
2.571705	1.293961
2.644153	1.293609
2.718641	1.293239
2.795228	1.292850
2.873972	1.292441
2.954934	1.292013
3.038178	1.291563
3.123766	1.291090
3.211766	1.290595
3.302244	1.290075
3.395271	1.289529
3.490920	1.288957
3.589262	1.288357
3.690375	1.287728
3.794336	1.287068
3.901226	1.286376
4.011128	1.285651
4.124125	1.284891
4.240305	1.284095
4.359759	1.283260
4.482577	1.282387
4.608856	1.281472
4.738692	1.280513
4.872185	1.279510
5.009439	1.278459
5.150560	1.277360
5.295656	1.276209
5.444840	1.275005
5.598226	1.273746
5.755934	1.272429
5.918084	1.271052
6.084802	1.269612
6.256216	1.268107
6.432460	1.266534
6.613668	1.264891
6.799982	1.263174
6.991544	1.261381
7.188502	1.259508
7.391009	1.257553
7.599221	1.255513
7.813298	1.253383
8.033406	1.251162
8.259715	1.248845
8.492399	1.246428
8.731638	1.243909
8.977616	1.241282
9.230524	1.238546
9.490557	1.235694
9.757915	1.232724
10.032805	1.229632
10.315438	1.226412
10.606034	1.223062
10.904816	1.219576
11.212015	1.215949
11.527868	1.212178
11.852619	1.208257
12.186519	1.204183
12.529825	1.199949
12.882802	1.195552
13.245723	1.190987
13.618867	1.186248
14.002524	1.181330
14.396988	1.176229
14.802565	1.170939
15.219567	1.165456
15.648317	1.159774
16.089145	1.153888
16.542392	1.147794
17.008406	1.141486
17.487549	1.134960
17.980190	1.128210
18.486709	1.121233
19.007498	1.114022
19.542957	1.106575
20.093501	1.098885
20.659554	1.090951
21.241553	1.082766
21.839948	1.074328
22.455200	1.065634
23.087784	1.056679
23.738189	1.047462
24.406916	1.037979
25.094482	1.028228
25.801418	1.018208
26.528268	1.007917
27.275595	0.997355
28.043974	0.986520
28.834000	0.975413
29.646281	0.964035
30.481445	0.952386
31.340136	0.940469
32.223018	0.928286
33.130771	0.915839
34.064096	0.903134
35.023714	0.890174
36.010365	0.876965
37.024811	0.863513
38.067836	0.849824
39.140243	0.835906
40.242861	0.821768
41.376540	0.807418
42.542157	0.792867
43.740610	0.778126
44.972824	0.763205
46.239752	0.748117
47.542369	0.732876
48.881683	0.717496
50.258727	0.701989
51.674563	0.686373
53.130284	0.670662
54.627015	0.654874
56.165910	0.639024
57.748157	0.623131
59.374978	0.607211
61.047627	0.591284
62.767397	0.575367
64.535614	0.559479
66.353644	0.543639
68.222889	0.527865
70.144793	0.512175
72.120838	0.496589
74.152551	0.481123
76.241499	0.465797
78.389295	0.450627
80.597596	0.435630
82.868107	0.420822
85.202580	0.406219
87.602818	0.391836
90.070672	0.377686
92.608049	0.363782
95.216906	0.350137
97.899256	0.336761
100.657172	0.323664
103.492780	0.310856
106.408270	0.298343
109.405892	0.286133
112.487960	0.274231
115.656853	0.262642
118.915017	0.251369
122.264966	0.240414
125.709286	0.229778
129.250636	0.219462
132.891750	0.209465
136.635437	0.199785
140.484587	0.190420
144.442171	0.181366
148.511245	0.172619
152.694948	0.164175
156.996510	0.156028
161.419251	0.148172
165.966585	0.140601
170.642021	0.133308
175.449169	0.126287
180.391739	0.119530
185.473546	0.113030
190.698512	0.106778
196.070671	0.100769
201.594168	0.094993
207.273268	0.089443
213.112353	0.084112
219.115931	0.078993
225.288635	0.074077
231.635230	0.069359
238.160615	0.064832
244.869826	0.060488
251.768042	0.056321
258.860587	0.052325
266.152936	0.048494
273.650717	0.044823
281.359718	0.041306
289.285889	0.037937
297.435348	0.034712
305.814385	0.031625
314.429467	0.028673
323.287244	0.025850
332.394553	0.023152
341.758424	0.020576
351.386084	0.018117
361.284964	0.015771
371.462705	0.013534
381.927163	0.011404
392.686414	0.009377
403.748764	0.007448
415.122751	0.005616
426.817154	0.003877
438.840999	0.002227
451.203567	0.000664
463.914401	-0.000815
476.983311	-0.002212
490.420385	-0.003532
504.235993	-0.004775
518.440801	-0.005946
533.045772	-0.007046
548.062178	-0.008078
563.501611	-0.009045
579.375987	-0.009949
595.697560	-0.010791
612.478927	-0.011575
629.733041	-0.012303
647.473220	-0.012976
665.713156	-0.013597
684.466929	-0.014169
703.749014	-0.014692
723.574293	-0.015168
743.958069	-0.015601
764.916075	-0.015991
786.464489	-0.016341
808.619942	-0.016652
831.399535	-0.016926
854.820850	-0.017164
878.901967	-0.017368
903.661471	-0.017540
929.118475	-0.017682
955.292626	-0.017794
982.204128	-0.017878
1009.873753	-0.017936
1038.322857	-0.017969
1067.573400	-0.017978
1097.647958	-0.017965
1128.569745	-0.017931
1160.362628	-0.017876
1193.051147	-0.017803
1226.660533	-0.017711
1261.216727	-0.017604
1296.746402	-0.017480
1333.276982	-0.017342
1370.836663	-0.017191
1409.454435	-0.017026
1449.160108	-0.016850
1489.984326	-0.016663
1531.958602	-0.016466
1575.115333	-0.016260
1619.487831	-0.016045
1665.110343	-0.015823
1712.018086	-0.015593
1760.247264	-0.015357
1809.835104	-0.015116
1860.819880	-0.014869
1913.240946	-0.014618
1967.138764	-0.014363
2022.554934	-0.014105
2079.532230	-0.013844
2138.114631	-0.013581
2198.347355	-0.013315
2260.276891	-0.013049
2323.951041	-0.012781
2389.418952	-0.012513
2456.731157	-0.012245
2525.939611	-0.011977
2597.097733	-0.011709
2670.260446	-0.011443
2745.484223	-0.011177
2822.827125	-0.010913
2902.348851	-0.010650
2984.110779	-0.010390
3068.176018	-0.010132
3154.609455	-0.009876
3243.477804	-0.009622
3334.849660	-0.009372
3428.795547	-0.009124
3525.387979	-0.008880
3624.701512	-0.008639
3726.812802	-0.008401
3831.800663	-0.008167
3939.746133	-0.007936
4050.732530	-0.007709
4164.845518	-0.007486
4282.173178	-0.007266
4402.806070	-0.007051
4526.837305	-0.006840
4654.362619	-0.006632
4785.480441	-0.006429
4920.291977	-0.006230
5058.901283	-0.006035
5201.415344	-0.005844
5347.944162	-0.005658
5498.600837	-0.005475
5653.501653	-0.005297
5812.766173	-0.005123
5976.517325	-0.004952
6144.881503	-0.004787
6317.988661	-0.004625
6495.972411	-0.004467
6678.970134	-0.004313
6867.123076	-0.004164
7060.576465	-0.004018
7259.479621	-0.003876
7463.986067	-0.003738
7674.253655	-0.003604
7890.444681	-0.003474
8112.726013	-0.003347
8341.269223	-0.003224
8576.250711	-0.003105
8817.851852	-0.002989
9066.259127	-0.002876
9321.664271	-0.002768
9584.264421	-0.002662
9854.262267	-0.002560
10131.866209	-0.002461
10417.290518	-0.002365
10710.755501	-0.002272
11012.487673	-0.002182
11322.719926	-0.002095
11641.691717	-0.002011
11969.649247	-0.001930
12306.845653	-0.001852
12653.541202	-0.001776
13010.003495	-0.001703
13376.507669	-0.001633
13753.336615	-0.001565
14140.781190	-0.001499
14539.140448	-0.001436
14948.721865	-0.001375
15369.841580	-0.001317
15802.824638	-0.001260
16248.005241	-0.001206
16705.727004	-0.001153
17176.343226	-0.001103
17660.217154	-0.001054
18157.722270	-0.001008
18669.242580	-0.000963
19195.172902	-0.000920
19735.919183	-0.000879
20291.898800	-0.000839
20863.540892	-0.000801
21451.286686	-0.000764
22055.589838	-0.000729
22676.916784	-0.000696
23315.747102	-0.000663
23972.573877	-0.000632
24647.904087	-0.000603
25342.258992	-0.000574
26056.174535	-0.000547
26790.201758	-0.000521
27544.907226	-0.000496
28320.873465	-0.000472
29118.699411	-0.000450
29939.000873	-0.000428
30782.411008	-0.000407
31649.580808	-0.000387
32541.179607	-0.000368
33457.895591	-0.000350
34400.436338	-0.000333
35369.529353	-0.000316
36365.922641	-0.000300
37390.385275	-0.000285
38443.707996	-0.000271
39526.703821	-0.000257
40640.208668	-0.000244
41785.082006	-0.000231
42962.207514	-0.000220
44172.493768	-0.000208
45416.874938	-0.000197
46696.311508	-0.000187
48011.791024	-0.000177
49364.328849	-0.000168
50754.968951	-0.000159
52184.784708	-0.000151
53654.879734	-0.000143
55166.388736	-0.000135
56720.478385	-0.000128
58318.348217	-0.000121
59961.231563	-0.000115
61650.396495	-0.000109
63387.146810	-0.000103
65172.823033	-0.000097
67008.803455	-0.000092
68896.505191	-0.000087
70837.385281	-0.000082
72832.941810	-0.000078
74884.715064	-0.000073
76994.288722	-0.000069
79163.291077	-0.000065
81393.396292	-0.000062
83686.325692	-0.000058
86043.849095	-0.000055
88467.786174	-0.000052
90960.007867	-0.000049
93522.437816	-0.000046
96157.053854	-0.000044
98865.889531	-0.000041
101651.035687	-0.000039
104514.642059	-0.000037
107458.918947	-0.000035
110486.138916	-0.000033
113598.638550	-0.000031
116798.820261	-0.000029
120089.154134	-0.000027
123472.179842	-0.000026
126950.508603	-0.000024
130526.825194	-0.000023
134203.890025	-0.000022
137984.541271	-0.000020
141871.697058	-0.000019
145868.357722	-0.000018
149977.608118	-0.000017
154202.620007	-0.000016
158546.654500	-0.000015
163013.064577	-0.000014
167605.297675	-0.000013
172326.898347	-0.000013
177181.511002	-0.000012
182172.882713	-0.000011
187304.866114	-0.000011
192581.422368	-0.000010
198006.624232	-0.000009
203584.659194	-0.000009
209319.832706	-0.000008
215216.571512	-0.000008
221279.427059	-0.000007
227513.079014	-0.000007
233922.338875	-0.000007
240512.153683	-0.000006
247287.609843	-0.000006
254253.937048	-0.000006
261416.512317	-0.000005
268780.864145	-0.000005
276352.676770	-0.000005
284137.794559	-0.000004
292142.226522	-0.000004
300372.150947	-0.000004
308833.920173	-0.000004
317534.065487	-0.000003
326479.302170	-0.000003
335676.534680	-0.000003
345132.861979	-0.000003
354855.583014	-0.000003
364852.202349	-0.000003
375130.435960	-0.000002
385698.217189	-0.000002
396563.702868	-0.000002
407735.279614	-0.000002
419221.570305	-0.000002
431031.440731	-0.000002
443174.006441	-0.000002
455658.639778	-0.000002
468494.977112	-0.000002
481692.926280	-0.000002
495262.674231	-0.000001
509214.694889	-0.000001
523559.757242	-0.000001
538308.933647	-0.000001
553473.608382	-0.000001
569065.486429	-0.000001
585096.602514	-0.000001
601579.330388	-0.000001
618526.392386	-0.000001
635950.869241	-0.000001
653866.210185	-0.000001
672286.243325	-0.000001
691225.186322	-0.000001
710697.657358	-0.000001
730718.686427	-0.000001
751303.726930	-0.000001
772468.667606	-0.000001
794229.844794	-0.000001
816604.055044	-0.000001
839608.568081	-0.000001
863261.140133	-0.000001
887580.027640	-0.000001
912584.001342	-0.000001
938292.360768	-0.000001
964724.949135	-0.000001
991902.168660	-0.000001
1019844.996312	-0.000001
1048575.000000	-0.000001
