# Velocity	Xi_G_fit
0.000000	1.203262
1.000000	1.200983
1.028171	1.200919
1.057136	1.200852
1.086916	1.200782
1.117535	1.200708
1.149018	1.200630
1.181386	1.200548
1.214667	1.200462
1.248886	1.200371
1.284068	1.200275
1.320241	1.200175
1.357434	1.200069
1.395674	1.199958
1.434991	1.199841
1.475416	1.199718
1.516980	1.199588
1.559715	1.199452
1.603654	1.199309
1.648830	1.199158
1.695279	1.198999
1.743037	1.198832
1.792140	1.198657
1.842626	1.198473
1.894535	1.198278
1.947906	1.198074
2.002780	1.197860
2.059200	1.197634
2.117210	1.197397
2.176854	1.197148
2.238178	1.196886
2.301229	1.196611
2.366057	1.196322
2.432711	1.196018
2.501243	1.195699
2.571705	1.195364
2.644153	1.195012
2.718641	1.194642
2.795228	1.194254
2.873972	1.193846
2.954934	1.193419
3.038178	1.192970
3.123766	1.192499
3.211766	1.192005
3.302244	1.191487
3.395271	1.190943
3.490920	1.190373
3.589262	1.189776
3.690375	1.189149
3.794336	1.188493
3.901226	1.187805
4.011128	1.187084
4.124125	1.186329
4.240305	1.185538
4.359759	1.184709
4.482577	1.183842
4.608856	1.182934
4.738692	1.181983
4.872185	1.180988
5.009439	1.179947
5.150560	1.178857
5.295656	1.177718
5.444840	1.176526
5.598226	1.175280
5.755934	1.173977
5.918084	1.172615
6.084802	1.171192
6.256216	1.169705
6.432460	1.168153
6.613668	1.166531
6.799982	1.164837
6.991544	1.163070
7.188502	1.161225
7.391009	1.159299
7.599221	1.157291
7.813298	1.155196
8.033406	1.153011
8.259715	1.150734
8.492399	1.148361
8.731638	1.145888
8.977616	1.143312
9.230524	1.140629
9.490557	1.137835
9.757915	1.134927
10.032805	1.131901
10.315438	1.128753
10.606034	1.125479
10.904816	1.122074
11.212015	1.118536
11.527868	1.114858
11.852619	1.111038
12.186519	1.107070
12.529825	1.102951
12.882802	1.098676
13.245723	1.094241
13.618867	1.089641
14.002524	1.084871
14.396988	1.079927
14.802565	1.074805
15.219567	1.069499
15.648317	1.064006
16.089145	1.058322
16.542392	1.052440
17.008406	1.046358
17.487549	1.040071
17.980190	1.033575
18.486709	1.026865
19.007498	1.019939
19.542957	1.012790
20.093501	1.005418
20.659554	0.997816
21.241553	0.989984
21.839948	0.981916
22.455200	0.973611
23.087784	0.965067
23.738189	0.956280
24.406916	0.947248
25.094482	0.937972
25.801418	0.928448
26.528268	0.918677
27.275595	0.908657
28.043974	0.898390
28.834000	0.887875
29.646281	0.877114
30.481445	0.866108
31.340136	0.854860
32.223018	0.843372
33.130771	0.831648
34.064096	0.819691
35.023714	0.807507
36.010365	0.795100
37.024811	0.782476
38.067836	0.769643
39.140243	0.756608
40.242861	0.743378
41.376540	0.729962
42.542157	0.716371
43.740610	0.702613
44.972824	0.688701
46.239752	0.674646
47.542369	0.660459
48.881683	0.646155
50.258727	0.631746
51.674563	0.617246
53.130284	0.602671
54.627015	0.588036
56.165910	0.573355
57.748157	0.558646
59.374978	0.543923
61.047627	0.529205
62.767397	0.514508
64.535614	0.499848
66.353644	0.485243
68.222889	0.470710
70.144793	0.456266
72.120838	0.441927
74.152551	0.427710
76.241499	0.413631
78.389295	0.399706
80.597596	0.385950
82.868107	0.372377
85.202580	0.359002
87.602818	0.345838
90.070672	0.332897
92.608049	0.320192
95.216906	0.307732
97.899256	0.295528
100.657172	0.283588
103.492780	0.271921
106.408270	0.260534
109.405892	0.249432
112.487960	0.238620
115.656853	0.228102
118.915017	0.217880
122.264966	0.207958
125.709286	0.198334
129.250636	0.189011
132.891750	0.179985
136.635437	0.171256
140.484587	0.162822
144.442171	0.154677
148.511245	0.146819
152.694948	0.139244
156.996510	0.131944
161.419251	0.124916
165.966585	0.118152
170.642021	0.111647
175.449169	0.105393
180.391739	0.099384
185.473546	0.093612
190.698512	0.088070
196.070671	0.082751
201.594168	0.077648
207.273268	0.072753
213.112353	0.068059
219.115931	0.063559
225.288635	0.059246
231.635230	0.055114
238.160615	0.051156
244.869826	0.047366
251.768042	0.043737
258.860587	0.040264
266.152936	0.036941
273.650717	0.033763
281.359718	0.030724
289.285889	0.027820
297.435348	0.025046
305.814385	0.022397
314.429467	0.019869
323.287244	0.017457
332.394553	0.015159
341.758424	0.012969
351.386084	0.010884
361.284964	0.008901
371.462705	0.007016
381.927163	0.005225
392.686414	0.003526
403.748764	0.001916
415.122751	0.000391
426.817154	-0.001052
438.840999	-0.002414
451.203567	-0.003700
463.914401	-0.004912
476.983311	-0.006052
490.420385	-0.007123
504.235993	-0.008128
518.440801	-0.009068
533.045772	-0.009947
548.062178	-0.010766
563.501611	-0.011527
579.375987	-0.012234
595.697560	-0.012888
612.478927	-0.013490
629.733041	-0.014044
647.473220	-0.014551
665.713156	-0.015012
684.466929	-0.015431
703.749014	-0.015808
723.574293	-0.016146
743.958069	-0.016446
764.916075	-0.016709
786.464489	-0.016938
808.619942	-0.017134
831.399535	-0.017299
854.820850	-0.017433
878.901967	-0.017540
903.661471	-0.017619
929.118475	-0.017672
955.292626	-0.017701
982.204128	-0.017707
1009.873753	-0.017691
1038.322857	-0.017654
1067.573400	-0.017598
1097.647958	-0.017524
1128.569745	-0.017432
1160.362628	-0.017324
1193.051147	-0.017201
1226.660533	-0.017064
1261.216727	-0.016913
1296.746402	-0.016751
1333.276982	-0.016576
1370.836663	-0.016391
1409.454435	-0.016197
1449.160108	-0.015993
1489.984326	-0.015782
1531.958602	-0.015562
1575.115333	-0.015336
1619.487831	-0.015104
1665.110343	-0.014866
1712.018086	-0.014624
1760.247264	-0.014377
1809.835104	-0.014126
1860.819880	-0.013872
1913.240946	-0.013616
1967.138764	-0.013357
2022.554934	-0.013096
2079.532230	-0.012834
2138.114631	-0.012572
2198.347355	-0.012308
2260.276891	-0.012045
2323.951041	-0.011782
2389.418952	-0.011519
2456.731157	-0.011257
2525.939611	-0.010996
2597.097733	-0.010737
2670.260446	-0.010479
2745.484223	-0.010224
2822.827125	-0.009970
2902.348851	-0.009719
2984.110779	-0.009470
3068.176018	-0.009225
3154.609455	-0.008982
3243.477804	-0.008742
3334.849660	-0.008505
3428.795547	-0.008271
3525.387979	-0.008042
3624.701512	-0.007815
3726.812802	-0.007592
3831.800663	-0.007373
3939.746133	-0.007158
4050.732530	-0.006946
4164.845518	-0.006739
4282.173178	-0.006535
4402.806070	-0.006336
4526.837305	-0.006140
4654.362619	-0.005949
4785.480441	-0.005761
4920.291977	-0.005578
5058.901283	-0.005399
5201.415344	-0.005223
5347.944162	-0.005052
5498.600837	-0.004885
5653.501653	-0.004722
5812.766173	-0.004563
5976.517325	-0.004408
6144.881503	-0.004257
6317.988661	-0.004110
6495.972411	-0.003966
6678.970134	-0.003827
6867.123076	-0.003691
7060.576465	-0.003559
7259.479621	-0.003431
7463.986067	-0.003306
7674.253655	-0.003185
7890.444681	-0.003067
8112.726013	-0.002953
8341.269223	-0.002843
8576.250711	-0.002735
8817.851852	-0.002631
9066.259127	-0.002531
9321.664271	-0.002433
9584.264421	-0.002338
9854.262267	-0.002247
10131.866209	-0.002158
10417.290518	-0.002073
10710.755501	-0.001990
11012.487673	-0.001910
11322.719926	-0.001833
11641.691717	-0.001758
11969.649247	-0.001686
12306.845653	-0.001616
12653.541202	-0.001549
13010.003495	-0.001484
13376.507669	-0.001422
13753.336615	-0.001362
14140.781190	-0.001304
14539.140448	-0.001248
14948.721865	-0.001194
15369.841580	-0.001142
15802.824638	-0.001092
16248.005241	-0.001044
16705.727004	-0.000998
17176.343226	-0.000954
17660.217154	-0.000911
18157.722270	-0.000870
18669.242580	-0.000831
19195.172902	-0.000793
19735.919183	-0.000757
20291.898800	-0.000722
20863.540892	-0.000689
21451.286686	-0.000657
22055.589838	-0.000626
22676.916784	-0.000597
23315.747102	-0.000568
23972.573877	-0.000541
24647.904087	-0.000516
25342.258992	-0.000491
26056.174535	-0.000467
26790.201758	-0.000445
27544.907226	-0.000423
28320.873465	-0.000402
29118.699411	-0.000382
29939.000873	-0.000363
30782.411008	-0.000345
31649.580808	-0.000328
32541.179607	-0.000312
33457.895591	-0.000296
34400.436338	-0.000281
35369.529353	-0.000266
36365.922641	-0.000253
37390.385275	-0.000240
38443.707996	-0.000227
39526.703821	-0.000216
40640.208668	-0.000204
41785.082006	-0.000194
42962.207514	-0.000183
44172.493768	-0.000174
45416.874938	-0.000164
46696.311508	-0.000156
48011.791024	-0.000147
49364.328849	-0.000139
50754.968951	-0.000132
52184.784708	-0.000125
53654.879734	-0.000118
55166.388736	-0.000111
56720.478385	-0.000105
58318.348217	-0.000099
59961.231563	-0.000094
61650.396495	-0.000088
63387.146810	-0.000083
65172.823033	-0.000079
67008.803455	-0.000074
68896.505191	-0.000070
70837.385281	-0.000066
72832.941810	-0.000062
74884.715064	-0.000059
76994.288722	-0.000055
79163.291077	-0.000052
81393.396292	-0.000049
83686.325692	-0.000046
86043.849095	-0.000043
88467.786174	-0.000041
90960.007867	-0.000038
93522.437816	-0.000036
96157.053854	-0.000034
98865.889531	-0.000032
101651.035687	-0.000030
104514.642059	-0.000028
107458.918947	-0.000026
110486.138916	-0.000025
113598.638550	-0.000023
116798.820261	-0.000022
120089.154134	-0.000020
123472.179842	-0.000019
126950.508603	-0.000018
130526.825194	-0.000017
134203.890025	-0.000016
137984.541271	-0.000015
141871.697058	-0.000014
145868.357722	-0.000013
149977.608118	-0.000012
154202.620007	-0.000011
158546.654500	-0.000011
163013.064577	-0.000010
167605.297675	-0.000009
172326.898347	-0.000009
177181.511002	-0.000008
182172.882713	-0.000008
187304.866114	-0.000007
192581.422368	-0.000007
198006.624232	-0.000006
203584.659194	-0.000006
209319.832706	-0.000005
215216.571512	-0.000005
221279.427059	-0.000005
227513.079014	-0.000004
233922.338875	-0.000004
240512.153683	-0.000004
247287.609843	-0.000003
254253.937048	-0.000003
261416.512317	-0.000003
268780.864145	-0.000003
276352.676770	-0.000003
284137.794559	-0.000002
292142.226522	-0.000002
300372.150947	-0.000002
308833.920173	-0.000002
317534.065487	-0.000002
326479.302170	-0.000002
335676.534680	-0.000002
345132.861979	-0.000001
354855.583014	-0.000001
364852.202349	-0.000001
375130.435960	-0.000001
385698.217189	-0.000001
396563.702868	-0.000001
407735.279614	-0.000001
419221.570305	-0.000001
431031.440731	-0.000001
443174.006441	-0.000001
455658.639778	-0.000001
468494.977112	-0.000001
481692.926280	-0.000001
495262.674231	-0.000001
509214.694889	-0.000000
523559.757242	-0.000000
538308.933647	-0.000000
553473.608382	-0.000000
569065.486429	-0.000000
585096.602514	-0.000000
601579.330388	-0.000000
618526.392386	-0.000000
635950.869241	-0.000000
653866.210185	-0.000000
672286.243325	-0.000000
691225.186322	-0.000000
710697.657358	-0.000000
730718.686427	-0.000000
751303.726930	-0.000000
772468.667606	-0.000000
794229.844794	-0.000000
816604.055044	-0.000000
839608.568081	-0.000000
863261.140133	-0.000000
887580.027640	-0.000000
912584.001342	-0.000000
938292.360768	-0.000000
964724.949135	-0.000000
991902.168660	-0.000000
1019844.996312	-0.000000
1048575.000000	-0.000000
