# Velocity	Xi_G_fit
0.000000	1.037951
1.000000	1.035872
1.028171	1.035813
1.057136	1.035751
1.086916	1.035686
1.117535	1.035618
1.149018	1.035546
1.181386	1.035471
1.214667	1.035391
1.248886	1.035308
1.284068	1.035220
1.320241	1.035128
1.357434	1.035030
1.395674	1.034928
1.434991	1.034821
1.475416	1.034708
1.516980	1.034589
1.559715	1.034463
1.603654	1.034332
1.648830	1.034194
1.695279	1.034048
1.743037	1.033895
1.792140	1.033734
1.842626	1.033565
1.894535	1.033387
1.947906	1.033201
2.002780	1.033004
2.059200	1.032798
2.117210	1.032581
2.176854	1.032353
2.238178	1.032113
2.301229	1.031862
2.366057	1.031598
2.432711	1.031320
2.501243	1.031028
2.571705	1.030722
2.644153	1.030401
2.718641	1.030064
2.795228	1.029709
2.873972	1.029338
2.954934	1.028948
3.038178	1.028539
3.123766	1.028110
3.211766	1.027660
3.302244	1.027189
3.395271	1.026694
3.490920	1.026176
3.589262	1.025633
3.690375	1.025064
3.794336	1.024467
3.901226	1.023842
4.011128	1.023188
4.124125	1.022503
4.240305	1.021785
4.359759	1.021035
4.482577	1.020248
4.608856	1.019426
4.738692	1.018565
4.872185	1.017665
5.009439	1.016723
5.150560	1.015738
5.295656	1.014708
5.444840	1.013632
5.598226	1.012507
5.755934	1.011331
5.918084	1.010103
6.084802	1.008820
6.256216	1.007481
6.432460	1.006082
6.613668	1.004623
6.799982	1.003099
6.991544	1.001510
7.188502	0.999852
7.391009	0.998123
7.599221	0.996320
7.813298	0.994441
8.033406	0.992482
8.259715	0.990442
8.492399	0.988316
8.731638	0.986103
8.977616	0.983798
9.230524	0.981400
9.490557	0.978904
9.757915	0.976308
10.032805	0.973608
10.315438	0.970801
10.606034	0.967883
10.904816	0.964851
11.212015	0.961702
11.527868	0.958431
11.852619	0.955035
12.186519	0.951512
12.529825	0.947856
12.882802	0.944064
13.245723	0.940133
13.618867	0.936058
14.002524	0.931836
14.396988	0.927463
14.802565	0.922936
15.219567	0.918250
15.648317	0.913402
16.089145	0.908389
16.542392	0.903205
17.008406	0.897849
17.487549	0.892316
17.980190	0.886603
18.486709	0.880707
19.007498	0.874624
19.542957	0.868352
20.093501	0.861887
20.659554	0.855226
21.241553	0.848367
21.839948	0.841308
22.455200	0.834045
23.087784	0.826578
23.738189	0.818904
24.406916	0.811023
25.094482	0.802932
25.801418	0.794630
26.528268	0.786118
27.275595	0.777395
28.043974	0.768462
28.834000	0.759318
29.646281	0.749964
30.481445	0.740403
31.340136	0.730636
32.223018	0.720666
33.130771	0.710494
34.064096	0.700126
35.023714	0.689564
36.010365	0.678812
37.024811	0.667877
38.067836	0.656763
39.140243	0.645477
40.242861	0.634026
41.376540	0.622416
42.542157	0.610655
43.740610	0.598753
44.972824	0.586719
46.239752	0.574561
47.542369	0.562290
48.881683	0.549917
50.258727	0.537454
51.674563	0.524912
53.130284	0.512303
54.627015	0.499640
56.165910	0.486937
57.748157	0.474207
59.374978	0.461463
61.047627	0.448720
62.767397	0.435993
64.535614	0.423295
66.353644	0.410642
68.222889	0.398048
70.144793	0.385528
72.120838	0.373096
74.152551	0.360767
76.241499	0.348555
78.389295	0.336473
80.597596	0.324537
82.868107	0.312757
85.202580	0.301148
87.602818	0.289721
90.070672	0.278488
92.608049	0.267458
95.216906	0.256643
97.899256	0.246051
100.657172	0.235691
103.492780	0.225570
106.408270	0.215694
109.405892	0.206069
112.487960	0.196700
115.656853	0.187590
118.915017	0.178743
122.264966	0.170161
125.709286	0.161843
129.250636	0.153792
132.891750	0.146004
136.635437	0.138481
140.484587	0.131218
144.442171	0.124214
148.511245	0.117464
152.694948	0.110965
156.996510	0.104711
161.419251	0.098699
165.966585	0.092922
170.642021	0.087374
175.449169	0.082049
180.391739	0.076942
185.473546	0.072045
190.698512	0.067352
196.070671	0.062856
201.594168	0.058551
207.273268	0.054431
213.112353	0.050488
219.115931	0.046716
225.288635	0.043110
231.635230	0.039662
238.160615	0.036367
244.869826	0.033220
251.768042	0.030215
258.860587	0.027346
266.152936	0.024608
273.650717	0.021997
281.359718	0.019508
289.285889	0.017136
297.435348	0.014877
305.814385	0.012727
314.429467	0.010682
323.287244	0.008739
332.394553	0.006892
341.758424	0.005140
351.386084	0.003479
361.284964	0.001905
371.462705	0.000415
381.927163	-0.000993
392.686414	-0.002323
403.748764	-0.003576
415.122751	-0.004757
426.817154	-0.005868
438.840999	-0.006911
451.203567	-0.007888
463.914401	-0.008803
476.983311	-0.009657
490.420385	-0.010452
504.235993	-0.011192
518.440801	-0.011878
533.045772	-0.012511
548.062178	-0.013095
563.501611	-0.013631
579.375987	-0.014122
595.697560	-0.014568
612.478927	-0.014972
629.733041	-0.015336
647.473220	-0.015662
665.713156	-0.015950
684.466929	-0.016203
703.749014	-0.016422
723.574293	-0.016610
743.958069	-0.016767
764.916075	-0.016894
786.464489	-0.016994
808.619942	-0.017068
831.399535	-0.017116
854.820850	-0.017141
878.901967	-0.017144
903.661471	-0.017125
929.118475	-0.017087
955.292626	-0.017029
982.204128	-0.016954
1009.873753	-0.016862
1038.322857	-0.016754
1067.573400	-0.016632
1097.647958	-0.016496
1128.569745	-0.016347
1160.362628	-0.016187
1193.051147	-0.016015
1226.660533	-0.015834
1261.216727	-0.015642
1296.746402	-0.015443
1333.276982	-0.015235
1370.836663	-0.015020
1409.454435	-0.014799
1449.160108	-0.014572
1489.984326	-0.014340
1531.958602	-0.014103
1575.115333	-0.013862
1619.487831	-0.013617
1665.110343	-0.013370
1712.018086	-0.013120
1760.247264	-0.012868
1809.835104	-0.012614
1860.819880	-0.012359
1913.240946	-0.012104
1967.138764	-0.011848
2022.554934	-0.011591
2079.532230	-0.011336
2138.114631	-0.011081
2198.347355	-0.010826
2260.276891	-0.010573
2323.951041	-0.010322
2389.418952	-0.010072
2456.731157	-0.009824
2525.939611	-0.009578
2597.097733	-0.009335
2670.260446	-0.009094
2745.484223	-0.008856
2822.827125	-0.008621
2902.348851	-0.008389
2984.110779	-0.008160
3068.176018	-0.007934
3154.609455	-0.007712
3243.477804	-0.007493
3334.849660	-0.007278
3428.795547	-0.007066
3525.387979	-0.006858
3624.701512	-0.006654
3726.812802	-0.006454
3831.800663	-0.006258
3939.746133	-0.006065
4050.732530	-0.005877
4164.845518	-0.005692
4282.173178	-0.005512
4402.806070	-0.005335
4526.837305	-0.005162
4654.362619	-0.004994
4785.480441	-0.004829
4920.291977	-0.004668
5058.901283	-0.004511
5201.415344	-0.004359
5347.944162	-0.004209
5498.600837	-0.004064
5653.501653	-0.003923
5812.766173	-0.003785
5976.517325	-0.003651
6144.881503	-0.003521
6317.988661	-0.003394
6495.972411	-0.003271
6678.970134	-0.003152
6867.123076	-0.003036
7060.576465	-0.002923
7259.479621	-0.002814
7463.986067	-0.002708
7674.253655	-0.002605
7890.444681	-0.002505
8112.726013	-0.002409
8341.269223	-0.002316
8576.250711	-0.002225
8817.851852	-0.002138
9066.259127	-0.002053
9321.664271	-0.001971
9584.264421	-0.001892
9854.262267	-0.001816
10131.866209	-0.001742
10417.290518	-0.001671
10710.755501	-0.001602
11012.487673	-0.001535
11322.719926	-0.001471
11641.691717	-0.001410
11969.649247	-0.001350
12306.845653	-0.001293
12653.541202	-0.001237
13010.003495	-0.001184
13376.507669	-0.001133
13753.336615	-0.001084
14140.781190	-0.001036
14539.140448	-0.000991
14948.721865	-0.000947
15369.841580	-0.000905
15802.824638	-0.000864
16248.005241	-0.000825
16705.727004	-0.000788
17176.343226	-0.000752
17660.217154	-0.000718
18157.722270	-0.000685
18669.242580	-0.000653
19195.172902	-0.000623
19735.919183	-0.000594
20291.898800	-0.000566
20863.540892	-0.000539
21451.286686	-0.000513
22055.589838	-0.000489
22676.916784	-0.000466
23315.747102	-0.000443
23972.573877	-0.000422
24647.904087	-0.000401
25342.258992	-0.000382
26056.174535	-0.000363
26790.201758	-0.000345
27544.907226	-0.000328
28320.873465	-0.000312
29118.699411	-0.000296
29939.000873	-0.000281
30782.411008	-0.000267
31649.580808	-0.000254
32541.179607	-0.000241
33457.895591	-0.000228
34400.436338	-0.000217
35369.529353	-0.000205
36365.922641	-0.000195
37390.385275	-0.000185
38443.707996	-0.000175
39526.703821	-0.000166
40640.208668	-0.000157
41785.082006	-0.000149
42962.207514	-0.000141
44172.493768	-0.000134
45416.874938	-0.000126
46696.311508	-0.000120
48011.791024	-0.000113
49364.328849	-0.000107
50754.968951	-0.000101
52184.784708	-0.000096
53654.879734	-0.000091
55166.388736	-0.000086
56720.478385	-0.000081
58318.348217	-0.000076
59961.231563	-0.000072
61650.396495	-0.000068
63387.146810	-0.000064
65172.823033	-0.000061
67008.803455	-0.000057
68896.505191	-0.000054
70837.385281	-0.000051
72832.941810	-0.000048
74884.715064	-0.000046
76994.288722	-0.000043
79163.291077	-0.000041
81393.396292	-0.000038
83686.325692	-0.000036
86043.849095	-0.000034
88467.786174	-0.000032
90960.007867	-0.000030
93522.437816	-0.000028
96157.053854	-0.000027
98865.889531	-0.000025
101651.035687	-0.000024
104514.642059	-0.000022
107458.918947	-0.000021
110486.138916	-0.000020
113598.638550	-0.000019
116798.820261	-0.000018
120089.154134	-0.000017
123472.179842	-0.000016
126950.508603	-0.000015
130526.825194	-0.000014
134203.890025	-0.000013
137984.541271	-0.000012
141871.697058	-0.000012
145868.357722	-0.000011
149977.608118	-0.000010
154202.620007	-0.000010
158546.654500	-0.000009
163013.064577	-0.000009
167605.297675	-0.000008
172326.898347	-0.000008
177181.511002	-0.000007
182172.882713	-0.000007
187304.866114	-0.000006
192581.422368	-0.000006
198006.624232	-0.000006
203584.659194	-0.000005
209319.832706	-0.000005
215216.571512	-0.000005
221279.427059	-0.000004
227513.079014	-0.000004
233922.338875	-0.000004
240512.153683	-0.000004
247287.609843	-0.000003
254253.937048	-0.000003
261416.512317	-0.000003
268780.864145	-0.000003
276352.676770	-0.000003
284137.794559	-0.000003
292142.226522	-0.000002
300372.150947	-0.000002
308833.920173	-0.000002
317534.065487	-0.000002
326479.302170	-0.000002
335676.534680	-0.000002
345132.861979	-0.000002
354855.583014	-0.000002
364852.202349	-0.000002
375130.435960	-0.000001
385698.217189	-0.000001
396563.702868	-0.000001
407735.279614	-0.000001
419221.570305	-0.000001
431031.440731	-0.000001
443174.006441	-0.000001
455658.639778	-0.000001
468494.977112	-0.000001
481692.926280	-0.000001
495262.674231	-0.000001
509214.694889	-0.000001
523559.757242	-0.000001
538308.933647	-0.000001
553473.608382	-0.000001
569065.486429	-0.000001
585096.602514	-0.000001
601579.330388	-0.000001
618526.392386	-0.000001
635950.869241	-0.000001
653866.210185	-0.000001
672286.243325	-0.000001
691225.186322	-0.000001
710697.657358	-0.000000
730718.686427	-0.000000
751303.726930	-0.000000
772468.667606	-0.000000
794229.844794	-0.000000
816604.055044	-0.000000
839608.568081	-0.000000
863261.140133	-0.000000
887580.027640	-0.000000
912584.001342	-0.000000
938292.360768	-0.000000
964724.949135	-0.000000
991902.168660	-0.000000
1019844.996312	-0.000000
1048575.000000	-0.000000
